,tau,QTQP_LinearSolver.PARDISO_0_0_3_clarabel_terms,QTQP_LinearSolver.PARDISO_0_0_3_always_1_it_refinement,Clarabel_all_default_settings_no_m_z
0,1.0,0.13178294573643412,0.10852713178294573,0.9147286821705426
1,1.0092621909870476,0.13953488372093023,0.12403100775193798,0.9147286821705426
2,1.0186101701559758,0.15503875968992248,0.13953488372093023,0.9147286821705426
3,1.0280447320933093,0.15503875968992248,0.14728682170542637,0.9147286821705426
4,1.0375666787451858,0.15503875968992248,0.14728682170542637,0.9147286821705426
5,1.0471768194855202,0.15503875968992248,0.14728682170542637,0.9147286821705426
6,1.0568759711848041,0.15503875968992248,0.15503875968992248,0.9147286821705426
7,1.0666649582795393,0.15503875968992248,0.15503875968992248,0.9147286821705426
8,1.0765446128423155,0.16279069767441862,0.15503875968992248,0.9147286821705426
9,1.0865157746525382,0.16279069767441862,0.15503875968992248,0.9147286821705426
10,1.0965792912678098,0.16279069767441862,0.15503875968992248,0.9147286821705426
11,1.1067360180959736,0.16279069767441862,0.15503875968992248,0.9147286821705426
12,1.116986818467823,0.16279069767441862,0.16279069767441862,0.9224806201550387
13,1.1273325637104867,0.16279069767441862,0.16279069767441862,0.9224806201550387
14,1.1377741332214912,0.16279069767441862,0.16279069767441862,0.9224806201550387
15,1.148312414543511,0.16279069767441862,0.16279069767441862,0.9224806201550387
16,1.158948303439811,0.16279069767441862,0.16279069767441862,0.9224806201550387
17,1.1696827039703852,0.16279069767441862,0.16279069767441862,0.9224806201550387
18,1.180516528568805,0.16279069767441862,0.16279069767441862,0.9224806201550387
19,1.1914506981197759,0.16279069767441862,0.16279069767441862,0.9224806201550387
20,1.2024861420374122,0.16279069767441862,0.16279069767441862,0.9302325581395349
21,1.2136237983442408,0.16279069767441862,0.16279069767441862,0.9302325581395349
22,1.2248646137509314,0.16279069767441862,0.16279069767441862,0.9302325581395349
23,1.2362095437367686,0.16279069767441862,0.16279069767441862,0.9302325581395349
24,1.2476595526308696,0.16279069767441862,0.16279069767441862,0.9302325581395349
25,1.259215613694151,0.16279069767441862,0.16279069767441862,0.9302325581395349
26,1.2708787092020586,0.16279069767441862,0.16279069767441862,0.9302325581395349
27,1.2826498305280605,0.16279069767441862,0.16279069767441862,0.9302325581395349
28,1.2945299782279156,0.16279069767441862,0.16279069767441862,0.9302325581395349
29,1.306520162124721,0.16279069767441862,0.16279069767441862,0.9302325581395349
30,1.3186214013947486,0.16279069767441862,0.16279069767441862,0.9302325581395349
31,1.330834724654075,0.16279069767441862,0.16279069767441862,0.9302325581395349
32,1.343161170046016,0.16279069767441862,0.16279069767441862,0.9302325581395349
33,1.3556017853293685,0.16279069767441862,0.16279069767441862,0.9302325581395349
34,1.3681576279674716,0.16279069767441862,0.16279069767441862,0.9302325581395349
35,1.3808297652180925,0.16279069767441862,0.17054263565891473,0.9302325581395349
36,1.3936192742241424,0.16279069767441862,0.17054263565891473,0.9302325581395349
37,1.406527242105237,0.16279069767441862,0.17054263565891473,0.937984496124031
38,1.4195547660501011,0.16279069767441862,0.17054263565891473,0.937984496124031
39,1.4327029534098308,0.16279069767441862,0.17054263565891473,0.937984496124031
40,1.4459729217920199,0.17054263565891473,0.17054263565891473,0.937984496124031
41,1.4593657991557567,0.17054263565891473,0.17054263565891473,0.937984496124031
42,1.4728827239075026,0.17054263565891473,0.17054263565891473,0.937984496124031
43,1.4865248449978568,0.17054263565891473,0.17054263565891473,0.937984496124031
44,1.5002933220192183,0.17054263565891473,0.17054263565891473,0.937984496124031
45,1.5141893253043521,0.17054263565891473,0.17054263565891473,0.937984496124031
46,1.5282140360258698,0.17829457364341086,0.17054263565891473,0.937984496124031
47,1.5423686462966282,0.17829457364341086,0.17054263565891473,0.9457364341085271
48,1.5566543592710615,0.17829457364341086,0.17054263565891473,0.9457364341085271
49,1.5710723892474503,0.17829457364341086,0.17054263565891473,0.9457364341085271
50,1.5856239617711374,0.17829457364341086,0.17054263565891473,0.9457364341085271
51,1.6003103137387007,0.17829457364341086,0.17054263565891473,0.9457364341085271
52,1.6151326935030905,0.17829457364341086,0.17829457364341086,0.9457364341085271
53,1.6300923609797406,0.18604651162790697,0.17829457364341086,0.9457364341085271
54,1.6451905877536626,0.1937984496124031,0.18604651162790697,0.9457364341085271
55,1.66042865718753,0.1937984496124031,0.18604651162790697,0.9457364341085271
56,1.6758078645307677,0.1937984496124031,0.1937984496124031,0.9457364341085271
57,1.691329517029648,0.1937984496124031,0.1937984496124031,0.9457364341085271
58,1.7069949340384074,0.1937984496124031,0.1937984496124031,0.9457364341085271
59,1.722805447131394,0.1937984496124031,0.21705426356589147,0.9457364341085271
60,1.7387624002162507,0.1937984496124031,0.21705426356589147,0.9457364341085271
61,1.754867149648151,0.21705426356589147,0.23255813953488372,0.9457364341085271
62,1.7711210643450879,0.2248062015503876,0.24031007751937986,0.9457364341085271
63,1.787525525904235,0.2248062015503876,0.24806201550387597,0.9457364341085271
64,1.8040819287193828,0.23255813953488372,0.24806201550387597,0.9457364341085271
65,1.820791680099463,0.23255813953488372,0.2558139534883721,0.9457364341085271
66,1.8376562003881711,0.24031007751937986,0.2558139534883721,0.9457364341085271
67,1.8546769230846987,0.24031007751937986,0.2558139534883721,0.9457364341085271
68,1.8718552949655787,0.24031007751937986,0.2558139534883721,0.9457364341085271
69,1.8891927762076663,0.24031007751937986,0.2558139534883721,0.9457364341085271
70,1.9066908405122525,0.24806201550387597,0.2558139534883721,0.9457364341085271
71,1.924350975230331,0.2558139534883721,0.2558139534883721,0.9457364341085271
72,1.9421746814890257,0.2558139534883721,0.2558139534883721,0.9457364341085271
73,1.9601634743191854,0.2558139534883721,0.2558139534883721,0.9457364341085271
74,1.9783188827841642,0.26356589147286824,0.2558139534883721,0.9457364341085271
75,1.996642450109794,0.26356589147286824,0.2558139534883721,0.9457364341085271
76,2.0151357338155576,0.26356589147286824,0.26356589147286824,0.9457364341085271
77,2.0338003058469813,0.26356589147286824,0.2713178294573643,0.9457364341085271
78,2.052637752709252,0.2713178294573643,0.2713178294573643,0.9457364341085271
79,2.071649675602069,0.2713178294573643,0.2713178294573643,0.9457364341085271
80,2.0908376905557504,0.2713178294573643,0.2713178294573643,0.9457364341085271
81,2.1102034285685956,0.2713178294573643,0.2713178294573643,0.9457364341085271
82,2.12974853574552,0.2713178294573643,0.2713178294573643,0.9457364341085271
83,2.14947467343798,0.2713178294573643,0.2713178294573643,0.9457364341085271
84,2.1693835183851844,0.2713178294573643,0.2713178294573643,0.9457364341085271
85,2.1894767628566214,0.2713178294573643,0.2713178294573643,0.9457364341085271
86,2.209756114795902,0.2713178294573643,0.2713178294573643,0.9457364341085271
87,2.2302232979659378,0.2713178294573643,0.2713178294573643,0.9457364341085271
88,2.2508800520954613,0.2713178294573643,0.2713178294573643,0.9457364341085271
89,2.2717281330269055,0.2713178294573643,0.2713178294573643,0.9457364341085271
90,2.2927693128656492,0.2713178294573643,0.2713178294573643,0.9457364341085271
91,2.314005380130653,0.2713178294573643,0.2713178294573643,0.9457364341085271
92,2.3354381399064787,0.2713178294573643,0.27906976744186046,0.9457364341085271
93,2.3570694139967276,0.2713178294573643,0.27906976744186046,0.9457364341085271
94,2.3789010410788936,0.27906976744186046,0.27906976744186046,0.9457364341085271
95,2.4009348768606524,0.2868217054263566,0.27906976744186046,0.9457364341085271
96,2.4231727942375993,0.2868217054263566,0.27906976744186046,0.9457364341085271
97,2.445616683452446,0.2868217054263566,0.27906976744186046,0.9457364341085271
98,2.468268452255692,0.2868217054263566,0.27906976744186046,0.9457364341085271
99,2.491130026067789,0.2868217054263566,0.27906976744186046,0.9457364341085271
100,2.5142033481427974,0.2868217054263566,0.27906976744186046,0.9457364341085271
101,2.5374903797335704,0.2868217054263566,0.27906976744186046,0.9457364341085271
102,2.5609931002584587,0.2868217054263566,0.2868217054263566,0.9457364341085271
103,2.5847135074695635,0.2868217054263566,0.2868217054263566,0.9457364341085271
104,2.608653617622548,0.2868217054263566,0.2868217054263566,0.9457364341085271
105,2.632815465648021,0.2868217054263566,0.2868217054263566,0.9457364341085271
106,2.6572011053245053,0.2868217054263566,0.2868217054263566,0.9457364341085271
107,2.681812609453015,0.2868217054263566,0.2868217054263566,0.9457364341085271
108,2.7066520700332415,0.2868217054263566,0.2868217054263566,0.9457364341085271
109,2.7317215984413767,0.2868217054263566,0.2868217054263566,0.9457364341085271
110,2.7570233256095835,0.2868217054263566,0.2868217054263566,0.9457364341085271
111,2.7825594022071245,0.2868217054263566,0.2868217054263566,0.9457364341085271
112,2.808331998823172,0.29457364341085274,0.2868217054263566,0.9457364341085271
113,2.8343433061513092,0.3023255813953488,0.2868217054263566,0.9457364341085271
114,2.8605955351757424,0.3023255813953488,0.2868217054263566,0.9457364341085271
115,2.887090917359236,0.3023255813953488,0.2868217054263566,0.9457364341085271
116,2.9138317048327873,0.3023255813953488,0.2868217054263566,0.9457364341085271
117,2.940820170587063,0.3023255813953488,0.2868217054263566,0.9457364341085271
118,2.9680586086656024,0.3023255813953488,0.2868217054263566,0.9457364341085271
119,2.9955493343598136,0.3023255813953488,0.29457364341085274,0.9457364341085271
120,3.0232946844057773,0.3178294573643411,0.29457364341085274,0.9457364341085271
121,3.0512970171828697,0.3178294573643411,0.29457364341085274,0.9457364341085271
122,3.079558712914226,0.3178294573643411,0.3023255813953488,0.9534883720930233
123,3.108082173869064,0.3333333333333333,0.31007751937984496,0.9534883720930233
124,3.1368698245668774,0.3333333333333333,0.31007751937984496,0.9534883720930233
125,3.1659241119835224,0.3333333333333333,0.31007751937984496,0.9534883720930233
126,3.195247505759212,0.3333333333333333,0.31007751937984496,0.9534883720930233
127,3.2248424984084414,0.3333333333333333,0.3178294573643411,0.9612403100775194
128,3.254711605531848,0.3333333333333333,0.3178294573643411,0.9612403100775194
129,3.2848573660300446,0.3333333333333333,0.3178294573643411,0.9612403100775194
130,3.315282342319425,0.34108527131782945,0.32558139534883723,0.9612403100775194
131,3.345989120549973,0.3488372093023256,0.32558139534883723,0.9612403100775194
132,3.3769803108250906,0.35658914728682173,0.32558139534883723,0.9612403100775194
133,3.408258547423452,0.35658914728682173,0.32558139534883723,0.9612403100775194
134,3.4398264890229253,0.35658914728682173,0.3333333333333333,0.9612403100775194
135,3.4716868189265613,0.35658914728682173,0.3333333333333333,0.9612403100775194
136,3.503842245290674,0.35658914728682173,0.3333333333333333,0.9612403100775194
137,3.536295501355042,0.35658914728682173,0.3333333333333333,0.9612403100775194
138,3.5690493456752295,0.3643410852713178,0.3333333333333333,0.9612403100775194
139,3.602106562357071,0.3643410852713178,0.3333333333333333,0.9612403100775194
140,3.6354699612933197,0.3643410852713178,0.3488372093023256,0.9612403100775194
141,3.6691423784024932,0.37209302325581395,0.3643410852713178,0.9612403100775194
142,3.703126675869926,0.37209302325581395,0.3643410852713178,0.9612403100775194
143,3.737425742391064,0.3798449612403101,0.3643410852713178,0.9612403100775194
144,3.7720424934169983,0.3798449612403101,0.37209302325581395,0.9612403100775194
145,3.806979871402286,0.3875968992248062,0.37209302325581395,0.9612403100775194
146,3.84224084605506,0.3875968992248062,0.37209302325581395,0.9612403100775194
147,3.877828414589456,0.3953488372093023,0.37209302325581395,0.9612403100775194
148,3.913745601980384,0.3953488372093023,0.3798449612403101,0.9612403100775194
149,3.949995461220644,0.40310077519379844,0.3875968992248062,0.9612403100775194
150,3.9865810735804406,0.40310077519379844,0.3875968992248062,0.9612403100775194
151,4.023505548869292,0.4108527131782946,0.3875968992248062,0.9612403100775194
152,4.060772025700365,0.4108527131782946,0.3953488372093023,0.9689922480620154
153,4.0983836717572615,0.4108527131782946,0.3953488372093023,0.9689922480620154
154,4.136343684063275,0.4108527131782946,0.4108527131782946,0.9689922480620154
155,4.174655289253137,0.4108527131782946,0.4108527131782946,0.9689922480620154
156,4.213321743847288,0.4108527131782946,0.4108527131782946,0.9689922480620154
157,4.252346334528682,0.4108527131782946,0.4108527131782946,0.9689922480620154
158,4.291732378422157,0.4108527131782946,0.4186046511627907,0.9689922480620154
159,4.3314832233764,0.4108527131782946,0.4186046511627907,0.9689922480620154
160,4.371602248248505,0.4108527131782946,0.4186046511627907,0.9689922480620154
161,4.412092863191189,0.4186046511627907,0.4186046511627907,0.9689922480620154
162,4.452958509942655,0.4186046511627907,0.4186046511627907,0.9689922480620154
163,4.494202662119142,0.4186046511627907,0.4186046511627907,0.9689922480620154
164,4.535828825510188,0.4263565891472868,0.4186046511627907,0.9689922480620154
165,4.577840538376619,0.4263565891472868,0.4186046511627907,0.9689922480620154
166,4.6202413717513116,0.43410852713178294,0.4186046511627907,0.9689922480620154
167,4.663034929742731,0.4496124031007752,0.4263565891472868,0.9689922480620154
168,4.7062248498412815,0.4496124031007752,0.43410852713178294,0.9689922480620154
169,4.749814803228501,0.4496124031007752,0.43410852713178294,0.9689922480620154
170,4.79380849508911,0.4496124031007752,0.43410852713178294,0.9767441860465116
171,4.838209664925956,0.4496124031007752,0.4418604651162791,0.9767441860465116
172,4.8830220868778795,0.4573643410852713,0.4418604651162791,0.9767441860465116
173,4.9282495700405144,0.46511627906976744,0.4496124031007752,0.9767441860465116
174,4.973895958790064,0.46511627906976744,0.4573643410852713,0.9767441860465116
175,5.019965133110082,0.4728682170542636,0.4573643410852713,0.9767441860465116
176,5.066461008921268,0.4806201550387597,0.4728682170542636,0.9767441860465116
177,5.113387538414326,0.4806201550387597,0.4728682170542636,0.9767441860465116
178,5.160748710385909,0.4806201550387597,0.4728682170542636,0.9767441860465116
179,5.208548550577661,0.4883720930232558,0.4806201550387597,0.9767441860465116
180,5.256791122018422,0.49612403100775193,0.4806201550387597,0.9767441860465116
181,5.305480525369573,0.49612403100775193,0.4806201550387597,0.9767441860465116
182,5.354620899273607,0.5038759689922481,0.4806201550387597,0.9844961240310077
183,5.404216420705916,0.5038759689922481,0.4806201550387597,0.9844961240310077
184,5.454271305329834,0.5038759689922481,0.4883720930232558,0.9844961240310077
185,5.50478980785497,0.5116279069767442,0.4883720930232558,0.9844961240310077
186,5.555776222398876,0.5193798449612403,0.49612403100775193,0.9844961240310077
187,5.607234882852032,0.5271317829457365,0.5038759689922481,0.9844961240310077
188,5.659170163246244,0.5348837209302325,0.5038759689922481,0.9844961240310077
189,5.711586478126432,0.5348837209302325,0.5116279069767442,0.9844961240310077
190,5.764488282925877,0.5426356589147286,0.5116279069767442,0.9844961240310077
191,5.8178800743449335,0.5503875968992248,0.5271317829457365,0.9844961240310077
192,5.871766390733256,0.5503875968992248,0.5271317829457365,0.9844961240310077
193,5.926151812475554,0.5503875968992248,0.5348837209302325,0.9844961240310077
194,5.981040962380941,0.5503875968992248,0.5426356589147286,0.9844961240310077
195,6.036438506075867,0.5658914728682171,0.5503875968992248,0.9844961240310077
196,6.09234915240071,0.5658914728682171,0.5581395348837209,0.9844961240310077
197,6.148777653810023,0.5891472868217055,0.5658914728682171,0.9844961240310077
198,6.205728806776502,0.5968992248062015,0.5658914728682171,0.9844961240310077
199,6.26320745219869,0.5968992248062015,0.5736434108527132,0.9844961240310077
200,6.321218475812452,0.6046511627906976,0.5813953488372093,0.9844961240310077
201,6.379766808606281,0.6046511627906976,0.5813953488372093,0.9844961240310077
202,6.4388574272404195,0.6124031007751938,0.5813953488372093,0.9844961240310077
203,6.49849535446989,0.6124031007751938,0.5813953488372093,0.9844961240310077
204,6.558685659571432,0.6201550387596899,0.5813953488372093,0.9844961240310077
205,6.619433458774393,0.6201550387596899,0.5891472868217055,0.9844961240310077
206,6.680743915695613,0.6201550387596899,0.5891472868217055,0.9844961240310077
207,6.742622241778342,0.6201550387596899,0.6124031007751938,0.9844961240310077
208,6.805073696735208,0.6201550387596899,0.6124031007751938,0.9844961240310077
209,6.868103588995304,0.627906976744186,0.6124031007751938,0.9844961240310077
210,6.931717276155406,0.627906976744186,0.627906976744186,0.9844961240310077
211,6.995920165435373,0.627906976744186,0.627906976744186,0.9844961240310077
212,7.060717714137773,0.627906976744186,0.6434108527131783,0.9844961240310077
213,7.1261154301117475,0.6434108527131783,0.6434108527131783,0.9844961240310077
214,7.192118872221189,0.6434108527131783,0.6434108527131783,0.9844961240310077
215,7.258733650817251,0.6434108527131783,0.6434108527131783,0.9844961240310077
216,7.3259654282152304,0.6434108527131783,0.6434108527131783,0.9844961240310077
217,7.393819919175866,0.6434108527131783,0.6434108527131783,0.9844961240310077
218,7.46230289139111,0.6434108527131783,0.6511627906976745,0.9844961240310077
219,7.531420165974372,0.6434108527131783,0.6511627906976745,0.9844961240310077
220,7.6011776179553285,0.6434108527131783,0.6511627906976745,0.9844961240310077
221,7.671581176779302,0.6511627906976745,0.6511627906976745,0.9844961240310077
222,7.742636826811269,0.6511627906976745,0.6511627906976745,0.9922480620155039
223,7.814350607844544,0.6511627906976745,0.6511627906976745,0.9922480620155039
224,7.886728615614152,0.6511627906976745,0.6511627906976745,0.9922480620155039
225,7.959777002314984,0.6589147286821705,0.6589147286821705,0.9922480620155039
226,8.033501977124734,0.6589147286821705,0.6589147286821705,0.9922480620155039
227,8.107909806731687,0.6589147286821705,0.6589147286821705,0.9922480620155039
228,8.183006815867392,0.6589147286821705,0.6666666666666666,0.9922480620155039
229,8.258799387844268,0.6589147286821705,0.6666666666666666,0.9922480620155039
230,8.335293965098193,0.6589147286821705,0.6666666666666666,0.9922480620155039
231,8.412497049736118,0.6589147286821705,0.6666666666666666,0.9922480620155039
232,8.490415204088746,0.6666666666666666,0.6666666666666666,0.9922480620155039
233,8.56905505126835,0.6666666666666666,0.6744186046511628,0.9922480620155039
234,8.648423275731723,0.6666666666666666,0.6744186046511628,0.9922480620155039
235,8.728526623848378,0.6666666666666666,0.6744186046511628,0.9922480620155039
236,8.809371904473991,0.6666666666666666,0.6821705426356589,0.9922480620155039
237,8.89096598952916,0.6744186046511628,0.6821705426356589,0.9922480620155039
238,8.973315814583522,0.6744186046511628,0.689922480620155,0.9922480620155039
239,9.05642837944529,0.689922480620155,0.689922480620155,0.9922480620155039
240,9.14031074875623,0.689922480620155,0.6976744186046512,0.9922480620155039
241,9.224970052592175,0.689922480620155,0.6976744186046512,0.9922480620155039
242,9.310413487069077,0.6976744186046512,0.6976744186046512,0.9922480620155039
243,9.396648314954692,0.6976744186046512,0.6976744186046512,0.9922480620155039
244,9.483681866285922,0.6976744186046512,0.6976744186046512,0.9922480620155039
245,9.571521538991863,0.7054263565891473,0.6976744186046512,0.9922480620155039
246,9.660174799522645,0.7054263565891473,0.6976744186046512,0.9922480620155039
247,9.749649183484088,0.7054263565891473,0.6976744186046512,0.9922480620155039
248,9.83995229627823,0.7054263565891473,0.6976744186046512,0.9922480620155039
