tau,SCS,OSQP,COSMO
1.0,0.9,0.1,0.0
1.0092621909870476,0.906,0.105,0.0
1.0186101701559758,0.91,0.114,0.0
1.0280447320933093,0.916,0.121,0.0
1.0375666787451858,0.921,0.128,0.0
1.0471768194855202,0.924,0.132,0.0
1.0568759711848041,0.929,0.139,0.001
1.0666649582795393,0.933,0.147,0.001
1.0765446128423155,0.937,0.151,0.001
1.0865157746525382,0.942,0.156,0.001
1.0965792912678098,0.949,0.166,0.001
1.1067360180959736,0.953,0.173,0.001
1.116986818467823,0.956,0.183,0.001
1.1273325637104867,0.961,0.187,0.001
1.1377741332214912,0.964,0.194,0.001
1.148312414543511,0.967,0.199,0.001
1.158948303439811,0.968,0.208,0.001
1.1696827039703852,0.972,0.222,0.001
1.180516528568805,0.976,0.231,0.001
1.1914506981197759,0.98,0.243,0.001
1.2024861420374122,0.981,0.255,0.001
1.2136237983442408,0.983,0.27,0.002
1.2248646137509314,0.983,0.28,0.002
1.2362095437367686,0.983,0.29,0.002
1.2476595526308696,0.985,0.305,0.002
1.259215613694151,0.985,0.316,0.002
1.2708787092020586,0.985,0.324,0.002
1.2826498305280605,0.987,0.331,0.002
1.2945299782279156,0.987,0.345,0.002
1.306520162124721,0.988,0.353,0.002
1.3186214013947486,0.988,0.365,0.002
1.330834724654075,0.988,0.373,0.002
1.343161170046016,0.99,0.378,0.002
1.3556017853293685,0.992,0.389,0.002
1.3681576279674716,0.992,0.395,0.002
1.3808297652180925,0.992,0.401,0.002
1.3936192742241424,0.993,0.411,0.002
1.406527242105237,0.993,0.424,0.002
1.4195547660501011,0.993,0.431,0.002
1.4327029534098308,0.994,0.433,0.002
1.4459729217920199,0.994,0.438,0.002
1.4593657991557567,0.994,0.445,0.002
1.4728827239075026,0.994,0.452,0.003
1.4865248449978568,0.995,0.455,0.004
1.5002933220192183,0.995,0.464,0.004
1.5141893253043521,0.996,0.478,0.004
1.5282140360258698,0.996,0.486,0.004
1.5423686462966282,0.996,0.5,0.004
1.5566543592710615,0.996,0.508,0.004
1.5710723892474503,0.996,0.518,0.004
1.5856239617711374,0.996,0.525,0.005
1.6003103137387007,0.996,0.534,0.005
1.6151326935030905,0.996,0.54,0.005
1.6300923609797406,0.996,0.545,0.006
1.6451905877536626,0.996,0.552,0.006
1.66042865718753,0.998,0.562,0.006
1.6758078645307677,0.998,0.571,0.006
1.691329517029648,0.998,0.577,0.006
1.7069949340384074,0.998,0.579,0.006
1.722805447131394,0.998,0.586,0.006
1.7387624002162507,0.998,0.592,0.007
1.754867149648151,0.998,0.6,0.007
1.7711210643450879,0.998,0.603,0.007
1.787525525904235,0.998,0.614,0.008
1.8040819287193828,0.998,0.621,0.009
1.820791680099463,0.998,0.629,0.009
1.8376562003881711,0.998,0.639,0.01
1.8546769230846987,0.998,0.642,0.011
1.8718552949655787,0.998,0.646,0.012
1.8891927762076663,0.998,0.655,0.012
1.9066908405122525,0.998,0.657,0.012
1.924350975230331,0.998,0.666,0.015
1.9421746814890257,0.998,0.671,0.015
1.9601634743191854,0.998,0.676,0.016
1.9783188827841642,0.998,0.684,0.017
1.996642450109794,0.998,0.687,0.019
2.0151357338155576,0.998,0.693,0.019
2.0338003058469813,0.998,0.697,0.02
2.052637752709252,0.998,0.707,0.021
2.071649675602069,0.998,0.714,0.022
2.0908376905557504,0.998,0.719,0.022
2.1102034285685956,0.998,0.722,0.022
2.12974853574552,0.998,0.726,0.024
2.14947467343798,0.998,0.729,0.025
2.1693835183851844,0.998,0.733,0.025
2.1894767628566214,0.998,0.736,0.026
2.209756114795902,0.999,0.738,0.028
2.2302232979659378,0.999,0.741,0.029
2.2508800520954613,0.999,0.744,0.03
2.2717281330269055,0.999,0.747,0.03
2.2927693128656492,0.999,0.749,0.031
2.314005380130653,0.999,0.75,0.032
2.3354381399064787,0.999,0.751,0.033
2.3570694139967276,0.999,0.753,0.035
2.3789010410788936,0.999,0.756,0.035
2.4009348768606524,0.999,0.762,0.035
2.4231727942375993,0.999,0.764,0.036
2.445616683452446,0.999,0.765,0.037
2.468268452255692,0.999,0.766,0.038
2.491130026067789,0.999,0.769,0.039
2.5142033481427974,0.999,0.772,0.04
2.5374903797335704,0.999,0.774,0.042
2.5609931002584587,0.999,0.781,0.044
2.5847135074695635,0.999,0.782,0.045
2.608653617622548,0.999,0.785,0.045
2.632815465648021,0.999,0.788,0.046
2.6572011053245053,0.999,0.789,0.046
2.681812609453015,0.999,0.791,0.046
2.7066520700332415,0.999,0.795,0.048
2.7317215984413767,0.999,0.796,0.05
2.7570233256095835,0.999,0.797,0.051
2.7825594022071245,0.999,0.797,0.053
2.808331998823172,0.999,0.799,0.055
2.8343433061513092,0.999,0.799,0.055
2.8605955351757424,0.999,0.801,0.057
2.887090917359236,0.999,0.805,0.06
2.9138317048327873,0.999,0.806,0.06
2.940820170587063,0.999,0.811,0.06
2.9680586086656024,0.999,0.812,0.06
2.9955493343598136,0.999,0.816,0.06
3.0232946844057773,0.999,0.818,0.061
3.0512970171828697,0.999,0.819,0.061
3.079558712914226,0.999,0.821,0.063
3.108082173869064,0.999,0.822,0.063
3.1368698245668774,0.999,0.823,0.063
3.1659241119835224,0.999,0.824,0.063
3.195247505759212,0.999,0.825,0.063
3.2248424984084414,0.999,0.827,0.064
3.254711605531848,0.999,0.831,0.066
3.2848573660300446,0.999,0.832,0.067
3.315282342319425,0.999,0.833,0.067
3.345989120549973,0.999,0.835,0.067
3.3769803108250906,0.999,0.836,0.068
3.408258547423452,0.999,0.836,0.069
3.4398264890229253,0.999,0.839,0.07
3.4716868189265613,0.999,0.839,0.071
3.503842245290674,0.999,0.839,0.073
3.536295501355042,0.999,0.84,0.073
3.5690493456752295,0.999,0.841,0.074
3.602106562357071,0.999,0.846,0.075
3.6354699612933197,0.999,0.848,0.075
3.6691423784024932,0.999,0.85,0.075
3.703126675869926,0.999,0.85,0.076
3.737425742391064,0.999,0.851,0.077
3.7720424934169983,0.999,0.851,0.077
3.806979871402286,0.999,0.855,0.08
3.84224084605506,0.999,0.857,0.083
3.877828414589456,0.999,0.858,0.083
3.913745601980384,0.999,0.859,0.083
3.949995461220644,0.999,0.859,0.084
3.986581073580441,0.999,0.862,0.086
4.023505548869292,0.999,0.863,0.089
4.060772025700365,0.999,0.865,0.09
4.0983836717572615,0.999,0.865,0.091
4.136343684063275,0.999,0.865,0.091
4.174655289253137,0.999,0.865,0.092
4.213321743847288,0.999,0.868,0.092
4.252346334528682,0.999,0.872,0.093
4.291732378422157,0.999,0.873,0.098
4.3314832233764,0.999,0.873,0.1
4.371602248248505,0.999,0.873,0.101
4.412092863191189,0.999,0.873,0.102
4.452958509942655,0.999,0.873,0.104
4.494202662119142,0.999,0.873,0.108
4.535828825510188,0.999,0.873,0.11
4.577840538376619,0.999,0.874,0.113
4.6202413717513116,0.999,0.876,0.116
4.663034929742731,0.999,0.879,0.118
4.7062248498412815,0.999,0.879,0.119
4.749814803228501,0.999,0.879,0.121
4.79380849508911,0.999,0.879,0.122
4.838209664925956,0.999,0.881,0.127
4.8830220868778795,0.999,0.881,0.129
4.9282495700405144,0.999,0.881,0.132
4.973895958790064,0.999,0.881,0.134
5.019965133110082,0.999,0.884,0.137
5.066461008921268,0.999,0.886,0.14
5.113387538414326,0.999,0.888,0.141
5.160748710385909,0.999,0.889,0.143
5.208548550577661,0.999,0.889,0.148
5.256791122018422,0.999,0.89,0.151
5.305480525369573,0.999,0.892,0.153
5.354620899273607,0.999,0.893,0.16
5.404216420705916,0.999,0.894,0.161
5.454271305329834,0.999,0.896,0.165
5.50478980785497,0.999,0.898,0.167
5.555776222398876,0.999,0.898,0.17
5.607234882852032,0.999,0.899,0.171
5.659170163246244,0.999,0.9,0.174
5.711586478126432,0.999,0.901,0.179
5.764488282925877,0.999,0.902,0.182
5.8178800743449335,0.999,0.902,0.187
5.871766390733256,0.999,0.903,0.188
5.926151812475554,0.999,0.904,0.195
5.981040962380941,0.999,0.904,0.197
6.036438506075867,0.999,0.905,0.198
6.09234915240071,0.999,0.907,0.199
6.148777653810023,0.999,0.907,0.203
6.205728806776502,0.999,0.907,0.213
6.26320745219869,0.999,0.909,0.221
6.321218475812452,0.999,0.91,0.226
6.379766808606281,0.999,0.91,0.233
6.4388574272404195,0.999,0.912,0.237
6.49849535446989,0.999,0.914,0.242
6.558685659571432,0.999,0.917,0.25
6.619433458774393,0.999,0.918,0.254
6.680743915695613,0.999,0.921,0.259
6.742622241778342,0.999,0.921,0.261
6.805073696735208,0.999,0.922,0.265
6.868103588995304,0.999,0.923,0.268
6.931717276155406,0.999,0.923,0.274
6.995920165435373,0.999,0.926,0.281
7.060717714137773,0.999,0.927,0.285
7.1261154301117475,0.999,0.927,0.291
7.192118872221189,0.999,0.929,0.295
7.258733650817251,0.999,0.93,0.301
7.3259654282152304,0.999,0.93,0.307
7.393819919175866,0.999,0.931,0.312
7.46230289139111,0.999,0.932,0.318
7.531420165974372,0.999,0.933,0.32
7.6011776179553285,0.999,0.934,0.328
7.671581176779302,0.999,0.934,0.334
7.742636826811269,0.999,0.935,0.34
7.814350607844544,0.999,0.936,0.344
7.886728615614152,0.999,0.938,0.355
7.959777002314984,0.999,0.94,0.362
8.033501977124734,0.999,0.94,0.368
8.107909806731687,0.999,0.941,0.377
8.183006815867392,0.999,0.942,0.387
8.258799387844268,0.999,0.943,0.391
8.335293965098193,0.999,0.945,0.396
8.412497049736118,0.999,0.945,0.402
8.490415204088746,0.999,0.946,0.408
8.56905505126835,0.999,0.948,0.415
8.648423275731723,0.999,0.948,0.419
8.728526623848378,0.999,0.949,0.43
8.809371904473991,0.999,0.949,0.437
8.89096598952916,0.999,0.949,0.445
8.973315814583522,0.999,0.95,0.456
9.05642837944529,0.999,0.952,0.466
9.14031074875623,0.999,0.952,0.471
9.224970052592175,0.999,0.955,0.481
9.310413487069077,0.999,0.957,0.488
9.396648314954692,0.999,0.96,0.495
9.483681866285922,0.999,0.96,0.502
9.571521538991863,0.999,0.962,0.513
9.660174799522645,0.999,0.964,0.529
9.749649183484088,0.999,0.965,0.545
9.83995229627823,0.999,0.966,0.554
9.931091813749795,0.999,0.966,0.566
10.023075482838655,0.999,0.967,0.577
10.115911122238298,0.999,0.967,0.586
10.209606623060465,0.999,0.969,0.597
10.30416994950588,0.999,0.973,0.604
10.399609139541198,0.999,0.973,0.61
10.495932305582278,0.999,0.973,0.619
10.5931476351837,0.999,0.974,0.628
10.691263391734761,0.999,0.974,0.638
10.79028791516184,0.999,0.974,0.642
10.8902296226373,0.999,0.974,0.654
10.991097009294972,0.999,0.974,0.664
11.092898648952227,0.999,0.975,0.672
11.195643194838782,0.999,0.975,0.68
11.299339380332222,0.999,0.975,0.685
11.403996019700324,0.999,0.975,0.691
11.509622008850323,0.999,0.975,0.701
11.616226326085018,0.999,0.975,0.714
11.723818032865985,0.999,0.975,0.721
11.832406274583786,0.999,0.976,0.729
11.94200028133532,0.999,0.976,0.737
12.052609368708426,0.999,0.976,0.748
12.164242938573679,0.999,0.978,0.757
12.276910479883592,0.999,0.979,0.766
12.390621569479162,0.999,0.979,0.775
12.505385872903908,0.999,0.979,0.788
12.621213145225473,0.999,0.981,0.797
12.738113231864785,0.999,0.981,0.801
12.856096069432958,0.999,0.981,0.808
12.975171686575875,0.999,0.982,0.815
13.095350204826671,0.999,0.982,0.824
13.216641839466051,0.999,0.982,0.826
13.339056900390586,0.999,0.982,0.835
13.462605792989104,0.999,0.982,0.84
13.587299019027098,1.0,0.982,0.846
13.71314717753945,1.0,0.982,0.853
13.840160965731316,1.0,0.982,0.862
13.968351179887398,1.0,0.982,0.867
14.09772871628967,1.0,0.982,0.877
14.228304572143527,1.0,0.982,0.878
14.360089846512599,1.0,0.983,0.886
14.493095741262167,1.0,0.984,0.891
14.627333562011298,1.0,0.984,0.894
14.762814719093903,1.0,0.984,0.9
14.899550728528544,1.0,0.987,0.906
15.037553212997377,1.0,0.987,0.91
15.176833902834053,1.0,0.987,0.912
15.317404637020799,1.0,0.988,0.919
15.459277364194778,1.0,0.988,0.922
15.602464143663688,1.0,0.988,0.926
15.74697714643086,1.0,0.988,0.928
15.89282865622978,1.0,0.988,0.928
16.0400310705682,1.0,0.99,0.932
16.188596901781985,1.0,0.99,0.935
16.338538778098613,1.0,0.99,0.939
16.48986944471065,1.0,0.99,0.941
16.642601764859037,1.0,0.99,0.944
16.79674872092653,1.0,0.99,0.945
16.952323415541205,1.0,0.99,0.949
17.109339072690144,1.0,0.99,0.952
17.26780903884356,1.0,0.99,0.954
17.42774678408919,1.0,0.99,0.959
17.589165903277326,1.0,0.99,0.961
17.75208011717635,1.0,0.99,0.963
17.916503273639005,1.0,0.99,0.963
18.082449348779516,1.0,0.99,0.966
18.249932448161523,1.0,0.99,0.968
18.41896680799711,1.0,0.991,0.968
18.589566796356873,1.0,0.991,0.968
18.761746914391203,1.0,0.991,0.971
18.935521797562952,1.0,0.991,0.972
19.11090621689138,1.0,0.991,0.973
19.287915080207778,1.0,0.991,0.975
19.46656343342262,1.0,0.991,0.976
19.646866461804457,1.0,0.991,0.979
19.828839491270713,1.0,0.991,0.98
20.01249798969037,1.0,0.991,0.98
20.197857568198785,1.0,0.991,0.98
20.384933982524633,1.0,0.991,0.98
20.573743134329128,1.0,0.991,0.981
20.764301072557746,1.0,0.991,0.981
20.95662399480433,1.0,0.991,0.981
21.150728248687948,1.0,0.991,0.981
21.346630333242445,1.0,0.991,0.982
21.544346900318832,1.0,0.991,0.982
21.7438947560008,1.0,0.991,0.983
21.945290862033136,1.0,0.991,0.984
22.14855233726359,1.0,0.991,0.984
22.353696459097954,1.0,0.991,0.985
22.560740664968602,1.0,0.992,0.985
22.7697025538168,1.0,0.993,0.985
22.98059988758851,1.0,0.993,0.985
23.193450592744288,1.0,0.994,0.985
23.408272761782932,1.0,0.994,0.985
23.625084654779464,1.0,0.994,0.985
23.843904700937205,1.0,0.994,0.985
24.06475150015424,1.0,0.994,0.985
24.287643824604515,1.0,0.994,0.985
24.512600620333387,1.0,0.995,0.985
24.73964100886813,1.0,0.995,0.985
24.968784288843267,1.0,0.995,0.985
25.200049937640923,1.0,0.996,0.985
25.433457613046496,1.0,0.996,0.985
25.669027154919505,1.0,0.996,0.985
25.906778586880076,1.0,0.996,0.985
26.14673211801092,1.0,0.996,0.985
26.388908144575105,1.0,0.996,0.986
26.633327251749822,1.0,0.997,0.986
26.88001021537606,1.0,0.997,0.986
27.128978003724658,1.0,0.997,0.986
27.380251779278577,1.0,0.997,0.986
27.6338529005317,1.0,0.997,0.986
27.88980292380441,1.0,0.997,0.986
28.1481236050758,1.0,0.998,0.986
28.408836901833027,1.0,0.998,0.986
28.671964974937698,1.0,0.998,0.987
28.937530190509502,1.0,0.998,0.988
29.205555121827466,1.0,0.998,0.988
29.47606255124857,1.0,0.998,0.989
29.749075472144405,1.0,0.998,0.989
30.024617090855493,1.0,0.998,0.989
30.30271082866396,1.0,0.998,0.989
30.583380323784333,1.0,0.998,0.989
30.86664943337273,1.0,0.998,0.989
31.15254223555488,1.0,0.998,0.989
31.441083031472647,1.0,0.998,0.99
31.732296347349763,1.0,0.998,0.99
32.02620693657652,1.0,0.998,0.99
32.32283978181379,1.0,0.998,0.99
32.622220097116696,1.0,0.998,0.991
32.924373330077685,1.0,0.998,0.991
33.229325163989714,1.0,0.998,0.991
33.5371015200293,1.0,0.998,0.991
33.84772855945981,1.0,0.998,0.991
34.16123268585528,1.0,0.998,0.991
34.47764054734464,1.0,0.998,0.991
34.79697903887691,1.0,0.998,0.991
35.1192753045073,1.0,0.998,0.991
35.44455673970434,1.0,0.998,0.991
35.77285099367874,1.0,0.998,0.991
36.10418597173337,1.0,0.998,0.991
36.43858983763545,1.0,0.998,0.991
36.77609101601033,1.0,0.998,0.991
37.11671819475765,1.0,0.998,0.991
37.46050032748993,1.0,0.998,0.991
37.80746663599349,1.0,0.998,0.991
38.15764661271248,1.0,0.998,0.991
38.511070023255705,1.0,0.998,0.991
38.867766908926654,1.0,0.998,0.991
39.22776758927719,1.0,0.998,0.991
39.591102664684584,1.0,0.998,0.991
39.957803018952696,1.0,0.998,0.991
40.32789982193707,1.0,0.998,0.991
40.701424532194366,1.0,0.998,0.991
41.078408899656466,1.0,0.998,0.991
41.45888496832911,1.0,0.998,0.991
41.84288507901582,1.0,0.998,0.991
42.23044187206674,1.0,0.998,0.991
42.62158829015323,1.0,0.998,0.991
43.01635758106795,1.0,0.998,0.991
43.41478330055092,1.0,0.998,0.993
43.816899315141924,1.0,0.998,0.993
44.22273980505899,1.0,0.998,0.993
44.63233926710395,1.0,0.998,0.993
45.04573251759459,1.0,0.998,0.993
45.462954695323994,1.0,0.998,0.993
45.88404126454759,1.0,0.998,0.993
46.30902801799739,1.0,0.998,0.993
46.73795107992461,1.0,0.998,0.993
47.17084690917017,1.0,0.998,0.993
47.607752302263684,1.0,0.998,0.993
48.048704396551315,1.0,0.998,0.993
48.493740673352356,1.0,0.998,0.995
48.94289896114529,1.0,0.998,0.995
49.396217438783204,1.0,0.998,0.995
49.853734638738935,1.0,0.998,0.995
50.31548945038054,1.0,0.998,0.996
50.78152112327673,1.0,0.998,0.996
51.2518692705333,1.0,0.998,0.996
51.72657387216019,1.0,0.998,0.996
52.205675278469755,1.0,0.998,0.996
52.689214213506744,1.0,0.998,0.996
53.17723177850969,1.0,0.998,0.996
53.66976945540476,1.0,0.998,0.996
54.16686911033152,1.0,0.998,0.996
54.66857299720181,1.0,0.998,0.996
55.17492376129126,1.0,0.998,0.996
55.68596444286412,1.0,0.998,0.996
56.20173848083188,1.0,0.998,0.996
56.72228971644544,1.0,0.998,0.996
57.247662397021784,1.0,0.998,0.996
57.77790117970504,1.0,0.998,0.996
58.313051135262214,1.0,0.998,0.996
58.8531577519145,1.0,0.998,0.996
59.398266939203566,1.0,0.998,0.996
59.94842503189409,1.0,0.998,0.996
60.503678793912215,1.0,0.998,0.996
61.06407542232039,1.0,0.998,0.997
61.629662551329425,1.0,0.998,0.997
62.200488256347114,1.0,0.999,0.997
62.776601058065,1.0,0.999,0.997
63.35804992658251,1.0,0.999,0.997
63.9448842855694,1.0,0.999,0.997
64.53715401646701,1.0,0.999,0.997
65.13490946272803,1.0,0.999,0.997
65.73820143409586,1.0,0.999,0.997
66.34708121092348,1.0,0.999,0.997
66.96160054853219,1.0,0.999,0.997
67.5818116816111,1.0,0.999,0.997
68.20776732865686,1.0,0.999,0.997
68.83952069645497,1.0,0.999,0.997
69.47712548460237,1.0,0.999,0.998
70.12063589007181,1.0,0.999,0.998
70.77010661181889,1.0,0.999,0.998
71.42559285543126,1.0,0.999,0.998
72.08715033782136,1.0,0.999,0.998
72.7548352919623,1.0,0.999,0.999
73.42870447166761,1.0,0.999,0.999
74.1088151564157,1.0,0.999,0.999
74.79522515621821,1.0,0.999,0.999
75.48799281653436,1.0,0.999,0.999
76.18717702322995,1.0,0.999,0.999
76.8928372075831,1.0,0.999,0.999
77.6050333513357,1.0,0.999,0.999
78.32382599179196,1.0,0.999,0.999
79.04927622696424,1.0,0.999,0.999
79.78144572076624,1.0,0.999,0.999
80.52039670825474,1.0,0.999,0.999
81.26619200091946,1.0,0.999,0.999
82.01889499202203,1.0,0.999,0.999
82.77856966198476,1.0,0.999,0.999
83.54528058382867,1.0,0.999,0.999
84.31909292866256,1.0,0.999,0.999
85.10007247122246,1.0,0.999,0.999
85.88828559546249,1.0,0.999,0.999
86.68379930019779,1.0,1.0,0.999
87.4866812047991,1.0,1.0,0.999
88.29699955494087,1.0,1.0,0.999
89.11482322840202,1.0,1.0,0.999
89.94022174092044,1.0,1.0,0.999
90.77326525210228,1.0,1.0,0.999
91.61402457138516,1.0,1.0,0.999
92.46257116405738,1.0,1.0,0.999
93.31897715733238,1.0,1.0,0.999
94.18331534647952,1.0,1.0,0.999
95.05565920101196,1.0,1.0,0.999
95.93608287093141,1.0,1.0,0.999
96.82466119303123,1.0,1.0,0.999
97.72146969725725,1.0,1.0,0.999
98.6265846131282,1.0,1.0,0.999
99.54008287621524,1.0,1.0,0.999
100.46204213468131,1.0,1.0,0.999
101.39254075588153,1.0,1.0,0.999
102.3316578330245,1.0,1.0,0.999
103.27947319189515,1.0,1.0,0.999
104.23606739764011,1.0,1.0,0.999
105.20152176161591,1.0,1.0,0.999
106.17591834830002,1.0,1.0,0.999
107.15933998226711,1.0,1.0,0.999
108.15187025522881,1.0,1.0,0.999
109.1535935331391,1.0,1.0,0.999
110.16459496336569,1.0,1.0,0.999
111.1849604819271,1.0,1.0,0.999
112.21477682079802,1.0,1.0,0.999
113.25413151528114,1.0,1.0,0.999
114.30311291144787,1.0,1.0,0.999
115.36181017364785,1.0,1.0,0.999
116.43031329208767,1.0,1.0,0.999
117.50871309048075,1.0,1.0,0.999
118.59710123376694,1.0,1.0,0.999
119.69557023590428,1.0,1.0,0.999
120.8042134677329,1.0,1.0,0.999
121.92312516491107,1.0,1.0,0.999
123.05240043592616,1.0,1.0,0.999
124.19213527017834,1.0,1.0,0.999
125.34242654613995,1.0,1.0,0.999
126.50337203959037,1.0,1.0,0.999
127.67507043192657,1.0,1.0,0.999
128.8576213185518,1.0,1.0,0.999
130.05112521734085,1.0,1.0,0.999
131.25568357718427,1.0,1.0,0.999
132.47139878661176,1.0,1.0,0.999
133.69837418249466,1.0,1.0,0.999
134.93671405883066,1.0,1.0,0.999
136.18652367560813,1.0,1.0,0.999
137.44790926775366,1.0,1.0,0.999
138.7209780541621,1.0,1.0,0.999
140.00583824680976,1.0,1.0,0.999
141.30259905995337,1.0,1.0,0.999
142.61137071941283,1.0,1.0,0.999
143.93226447194064,1.0,1.0,0.999
145.26539259467813,1.0,1.0,0.999
146.61086840469844,1.0,1.0,0.999
147.96880626863964,1.0,1.0,0.999
149.33932161242518,1.0,1.0,0.999
150.72253093107557,1.0,1.0,0.999
152.1185517986105,1.0,1.0,0.999
153.52750287804227,1.0,1.0,0.999
154.94950393146317,1.0,1.0,0.999
156.3846758302246,1.0,1.0,0.999
157.8331405652118,1.0,1.0,0.999
159.29502125721228,1.0,1.0,0.999
160.77044216738236,1.0,1.0,0.999
162.25952870780873,1.0,1.0,0.999
163.76240745216873,1.0,1.0,0.999
165.27920614648954,1.0,1.0,0.999
166.81005372000593,1.0,1.0,0.999
168.35508029612024,1.0,1.0,0.999
169.9144172034626,1.0,1.0,0.999
171.48819698705393,1.0,1.0,0.999
173.07655341957258,1.0,1.0,1.0
174.67962151272457,1.0,1.0,1.0
176.29753752872057,1.0,1.0,1.0
177.93043899185773,1.0,1.0,1.0
179.5784647002095,1.0,1.0,1.0
181.24175473742378,1.0,1.0,1.0
182.92045048462938,1.0,1.0,1.0
184.61469463245476,1.0,1.0,1.0
186.324631193156,1.0,1.0,1.0
188.05040551285816,1.0,1.0,1.0
189.79216428391015,1.0,1.0,1.0
191.55005555735278,1.0,1.0,1.0
193.32422875550452,1.0,1.0,1.0
195.11483468466164,1.0,1.0,1.0
